The cumulative induced charge.
Time [ns],Total Prompt [fC/ns],Total Delayed [fC/ns], Total Signal [fC/ns]
0,0.0001130105431823740295,0,0.0001130105431823740295
0.02000000000000000042,0.0001486451756374434564,0,0.0001486451756374434564
0.04000000000000000083,0.0001732104010120890714,0,0.0001732104010120890714
0.05999999999999999778,0.0001448255392077802425,0,0.0001448255392077802425
0.08000000000000000167,0.0001766450972302380077,0,0.0001766450972302380077
0.1000000000000000056,0.0001898119470262442246,0,0.0001898119470262442246
0.1199999999999999956,0.0002148433714134160438,0,0.0002148433714134160438
0.1400000000000000133,0.0002260331844725934193,0,0.0002260331844725934193
0.1600000000000000033,0.0002510323380039416671,0,0.0002510323380039416671
0.1799999999999999933,0.0002853554095126570149,0,0.0002853554095126570149
0.2000000000000000111,0.0003341886057354074365,0,0.0003341886057354074365
0.2200000000000000011,0.0003857325049155950242,0,0.0003857325049155950242
0.2399999999999999911,0.0004208095774156759444,0,0.0004208095774156759444
0.2600000000000000089,0.0004520940064965558959,0,0.0004520940064965558959
0.2800000000000000266,0.0005006252158464962604,0,0.0005006252158464962604
0.2999999999999999889,0.0005935436189278896039,0,0.0005935436189278896039
0.3200000000000000067,0.0006764645955639032003,0,0.0006764645955639032003
0.3400000000000000244,0.0007424228699079129168,0,0.0007424228699079129168
0.3599999999999999867,0.0008311982727044758693,0,0.0008311982727044758693
0.3800000000000000044,0.0009005823963275323479,0,0.0009005823963275323479
0.4000000000000000222,0.0009976960356736139755,0,0.0009976960356736139755
0.4199999999999999845,0.001125174693250113184,0,0.001125174693250113184
0.4400000000000000022,0.001181264021452555456,0,0.001181264021452555456
0.46000000000000002,0.001326514984151259827,0,0.001326514984151259827
0.4799999999999999822,0.001501893864372391826,0,0.001501893864372391826
0.5,0.001659957064514068449,0,0.001659957064514068449
0.5200000000000000178,0.001860165314686343168,0,0.001860165314686343168
0.5400000000000000355,0.002093840252468147541,0,0.002093840252468147541
0.5600000000000000533,0.002284375387527585056,0,0.002284375387527585056
0.57999999999999996,0.002561588234566081028,0,0.002561588234566081028
0.5999999999999999778,0.002875461063629138145,0,0.002875461063629138145
0.6199999999999999956,0.003047587387393190048,0,0.003047587387393190048
0.6400000000000000133,0.003291738214264303998,0,0.003291738214264303998
0.6600000000000000311,0.003600731732336521097,0,0.003600731732336521097
0.6800000000000000488,0.004027238426904298195,0,0.004027238426904298195
0.7000000000000000666,0.004463252468841046733,0,0.004463252468841046733
0.7199999999999999734,0.004975341642060831897,0,0.004975341642060831897
0.7399999999999999911,0.004659767515236020938,0,0.004659767515236020938
0.7600000000000000089,0.004259127128496750271,0,0.004259127128496750271
0.7800000000000000266,0.004160217854687120465,0,0.004160217854687120465
0.8000000000000000444,0.004335906426955294518,0,0.004335906426955294518
0.8200000000000000622,0.00450121728429454717,0,0.00450121728429454717
0.8399999999999999689,0.004679856539877621374,0,0.004679856539877621374
0.8599999999999999867,0.005243054218884543767,0,0.005243054218884543767
0.8800000000000000044,0.005776703995260749035,0,0.005776703995260749035
0.9000000000000000222,0.006509030325911838166,0,0.006509030325911838166
0.92000000000000004,0.007470206736286609875,0,0.007470206736286609875
0.9400000000000000577,0.008344031917647300178,0,0.008344031917647300178
0.9599999999999999645,0.009407575979064631069,0,0.009407575979064631069
0.9799999999999999822,0.01065594790654115533,0,0.01065594790654115533
1,0.0120467024633244997,0,0.0120467024633244997
1.020000000000000018,0.01270774225982762053,0,0.01270774225982762053
1.040000000000000036,0.01139103758120472119,0,0.01139103758120472119
1.060000000000000053,0.01198532031962383504,0,0.01198532031962383504
1.080000000000000071,0.01340405062205245884,0,0.01340405062205245884
1.100000000000000089,0.01490628489464148297,0,0.01490628489464148297
1.120000000000000107,0.01683404894609614316,0,0.01683404894609614316
1.140000000000000124,0.01889714115360125943,0,0.01889714115360125943
1.15999999999999992,0.02099703352782332152,0,0.02099703352782332152
1.179999999999999938,0.02327197040282518586,0,0.02327197040282518586
1.199999999999999956,0.02609232206288384856,0,0.02609232206288384856
1.219999999999999973,0.02908284082276251653,0,0.02908284082276251653
1.239999999999999991,0.03239725077759988969,0,0.03239725077759988969
1.260000000000000009,0.03422832126171162365,0,0.03422832126171162365
1.280000000000000027,0.03328587349486448327,0,0.03328587349486448327
1.300000000000000044,0.03502146954569198417,0,0.03502146954569198417
1.320000000000000062,0.02815927973898432746,0,0.02815927973898432746
1.34000000000000008,0.02692694621855627746,0,0.02692694621855627746
1.360000000000000098,0.02387698323233213016,0,0.02387698323233213016
1.380000000000000115,0.01766139169387735686,0,0.01766139169387735686
1.400000000000000133,0,0,0
1.419999999999999929,0,0,0
1.439999999999999947,0,0,0
1.459999999999999964,0,0,0
1.479999999999999982,0,0,0
1.5,0,0,0
1.520000000000000018,0,0,0
1.540000000000000036,0,0,0
1.560000000000000053,0,0,0
1.580000000000000071,0,0,0
1.600000000000000089,0,0,0
1.620000000000000107,0,0,0
1.640000000000000124,0,0,0
1.660000000000000142,0,0,0
1.679999999999999938,0,0,0
1.699999999999999956,0,0,0
1.719999999999999973,0,0,0
1.739999999999999991,0,0,0
1.760000000000000009,0,0,0
1.780000000000000027,0,0,0
1.800000000000000044,0,0,0
1.820000000000000062,0,0,0
1.84000000000000008,0,0,0
1.860000000000000098,0,0,0
1.880000000000000115,0,0,0
1.900000000000000133,0,0,0
1.919999999999999929,0,0,0
1.939999999999999947,0,0,0
1.959999999999999964,0,0,0
1.979999999999999982,0,0,0
2,0,0,0
2.020000000000000018,0,0,0
2.040000000000000036,0,0,0
2.060000000000000053,0,0,0
2.080000000000000071,0,0,0
2.100000000000000089,0,0,0
2.120000000000000107,0,0,0
2.140000000000000124,0,0,0
2.160000000000000142,0,0,0
2.18000000000000016,0,0,0
2.200000000000000178,0,0,0
2.220000000000000195,0,0,0
2.240000000000000213,0,0,0
2.260000000000000231,0,0,0
2.280000000000000249,0,0,0
2.300000000000000266,0,0,0
2.31999999999999984,0,0,0
2.339999999999999858,0,0,0
2.359999999999999876,0,0,0
2.379999999999999893,0,0,0
2.399999999999999911,0,0,0
2.419999999999999929,0,0,0
2.439999999999999947,0,0,0
2.459999999999999964,0,0,0
2.479999999999999982,0,0,0
2.5,0,0,0
2.520000000000000018,0,0,0
2.540000000000000036,0,0,0
2.560000000000000053,0,0,0
2.580000000000000071,0,0,0
2.600000000000000089,0,0,0
2.620000000000000107,0,0,0
2.640000000000000124,0,0,0
2.660000000000000142,0,0,0
2.68000000000000016,0,0,0
2.700000000000000178,0,0,0
2.720000000000000195,0,0,0
2.740000000000000213,0,0,0
2.760000000000000231,0,0,0
2.780000000000000249,0,0,0
2.800000000000000266,0,0,0
2.81999999999999984,0,0,0
2.839999999999999858,0,0,0
2.859999999999999876,0,0,0
2.879999999999999893,0,0,0
2.899999999999999911,0,0,0
2.919999999999999929,0,0,0
2.939999999999999947,0,0,0
2.959999999999999964,0,0,0
2.979999999999999982,0,0,0
3,0,0,0
3.020000000000000018,0,0,0
3.040000000000000036,0,0,0
3.060000000000000053,0,0,0
3.080000000000000071,0,0,0
3.100000000000000089,0,0,0
3.120000000000000107,0,0,0
3.140000000000000124,0,0,0
3.160000000000000142,0,0,0
3.18000000000000016,0,0,0
3.200000000000000178,0,0,0
3.220000000000000195,0,0,0
3.240000000000000213,0,0,0
3.260000000000000231,0,0,0
3.280000000000000249,0,0,0
3.300000000000000266,0,0,0
3.320000000000000284,0,0,0
3.339999999999999858,0,0,0
3.359999999999999876,0,0,0
3.379999999999999893,0,0,0
3.399999999999999911,0,0,0
3.419999999999999929,0,0,0
3.439999999999999947,0,0,0
3.459999999999999964,0,0,0
3.479999999999999982,0,0,0
3.5,0,0,0
3.520000000000000018,0,0,0
3.540000000000000036,0,0,0
3.560000000000000053,0,0,0
3.580000000000000071,0,0,0
3.600000000000000089,0,0,0
3.620000000000000107,0,0,0
3.640000000000000124,0,0,0
3.660000000000000142,0,0,0
3.68000000000000016,0,0,0
3.700000000000000178,0,0,0
3.720000000000000195,0,0,0
3.740000000000000213,0,0,0
3.760000000000000231,0,0,0
3.780000000000000249,0,0,0
3.800000000000000266,0,0,0
3.820000000000000284,0,0,0
3.839999999999999858,0,0,0
3.859999999999999876,0,0,0
3.879999999999999893,0,0,0
3.899999999999999911,0,0,0
3.919999999999999929,0,0,0
3.939999999999999947,0,0,0
3.959999999999999964,0,0,0
3.979999999999999982,0,0,0
